"Convergence history of Static Pressure on pressure_outlet (in SI units)"
"Flow Time" "Area-Weighted Average Static Pressure"
0.01 5934.86474609375
0.02 5931.17041015625
0.03 5930.505859375
0.04 5932.8125
0.05 5937.9326171875
0.06 5945.5966796875
0.07000000000000001 5955.44482421875
0.08 5967.03369140625
0.09 5979.85791015625
0.1 5993.3662109375
0.11 6006.98291015625
0.12 6020.13525390625
0.13 6032.26513671875
0.14 6042.861328125
0.15 6051.4697265625
0.16 6057.7197265625
0.17 6061.32763671875
0.18 6062.11962890625
0.19 6060.029296875
0.2 6055.103515625
0.21 6047.5
0.22 6037.48291015625
0.23 6025.40771484375
0.24 6011.71337890625
0.25 5996.5849609375
0.26 5980.2431640625
0.27 5963.34326171875
0.28 5946.63134765625
0.29 5930.89208984375
0.3 5916.8984375
0.31 5905.33837890625
0.32 5896.77294921875
0.33 5896.4375
0.34 5909.9638671875
0.35 5935.52294921875
0.36 5969.4482421875
0.37 6006.755859375
0.38 6041.9345703125
0.39 6069.8056640625
0.4 6086.2626953125
0.41 6089.3544921875
0.42 6079.08935546875
0.43 6057.294921875
0.44 6027.51611328125
0.45 5994.53466796875
0.46 5963.60888671875
0.47 5939.65625
0.48 5926.5302734375
0.49 5926.93017578125
0.5 5944.7265625
0.51 5980.4833984375
0.52 6034.0234375
0.53 6104.39111328125
0.54 6189.9501953125
0.55 6288.40625
0.5600000000000001 6396.93212890625
0.5700000000000001 6512.8427734375
0.58 6633.2529296875
0.59 6754.255859375
0.6 6871.73388671875
0.61 6981.5771484375
0.62 7079.88916015625
0.63 7163.19873046875
0.64 7228.66650390625
0.65 7274.2119140625
0.66 7298.66455078125
0.67 7301.76171875
0.6800000000000001 7284.1982421875
0.6900000000000001 7247.49853515625
0.7000000000000001 7193.96484375
0.71 7126.4794921875
0.72 7048.37353515625
0.73 6962.56298828125
0.74 6872.12255859375
0.75 6780.88623046875
0.76 6692.67626953125
0.77 6611.2255859375
0.78 6539.9287109375
0.79 6481.8505859375
0.8 6439.447265625
0.8100000000000001 6407.568359375
0.8200000000000001 6379.9287109375
0.8300000000000001 6356.53076171875
0.84 6337.25537109375
0.85 6321.8876953125
0.86 6310.10107421875
0.87 6301.484375
0.88 6295.54345703125
0.89 6291.72607421875
0.9 6289.43603515625
0.91 6288.05419921875
0.92 6286.96826171875
0.9300000000000001 6285.5810546875
0.9400000000000001 6283.3447265625
0.9500000000000001 6279.7705078125
0.96 6274.45556640625
0.97 6267.083984375
0.98 6257.45263671875
0.99 6245.46728515625
1. 6231.1474609375
1.01 6214.62646484375
1.02 6196.142578125
1.03 6176.0302734375
1.04 6154.70556640625
1.05 6132.33349609375
1.06 6109.115234375
1.07 6085.6865234375
1.08 6062.77685546875
1.09 6041.154296875
1.1 6021.57470703125
1.11 6004.7119140625
1.12 5991.11279296875
1.13 5985.99853515625
1.14 5994.9873046875
1.15 6016.2392578125
1.16 6046.07568359375
1.17 6079.501953125
1.18 6110.9951171875
1.19 6135.3681640625
1.2 6148.50341796875
1.21 6148.44287109375
1.22 6135.18408203125
1.23 6110.54833984375
1.24 6078.0712890625
1.25 6042.52880859375
1.26 6009.171875
1.27 5982.9111328125
1.28 5967.59375
1.29 5965.91357421875
1.3 5981.7353515625
1.31 6015.6171875
1.32 6067.37744140625
1.33 6136.0556640625
1.34 6220.0107421875
1.35 6316.94384765625
1.36 6424.02392578125
1.37 6538.56201171875
1.38 6657.66943359375
1.39 6777.435546875
1.4 6893.7392578125
1.41 7002.4677734375
1.42 7099.72119140625
1.43 7182.0263671875
1.44 7246.54052734375
1.45 7291.1806640625
1.46 7314.7734375
1.47 7317.0546875
1.48 7298.716796875
1.49 7261.28125
1.5 7207.04931640625
1.51 7138.90087890625
1.52 7060.166015625
1.53 6973.7578125
1.54 6882.75048828125
1.55 6790.97607421875
1.56 6702.25439453125
1.57 6620.31884765625
1.58 6548.5615234375
1.59 6490.0458984375
1.6 6447.22705078125
1.61 6414.95458984375
1.62 6386.9404296875
1.63 6363.18701171875
1.64 6343.5751953125
1.65 6327.88720703125
1.66 6315.79638671875
1.67 6306.89111328125
1.68 6300.67626953125
1.69 6296.59912109375
1.7 6294.0625
1.71 6292.4462890625
1.72 6291.13720703125
1.73 6289.5390625
1.74 6287.10205078125
1.75 6283.337890625
1.76 6277.841796875
1.77 6270.298828125
1.78 6260.5048828125
1.79 6248.36474609375
1.8 6233.89794921875
1.81 6217.23779296875
1.82 6198.6220703125
1.83 6178.3837890625
1.84 6156.93994140625
1.85 6134.45458984375
1.86 6111.12890625
1.87 6087.59814453125
1.88 6064.591796875
1.89 6042.876953125
1.9 6023.21044921875
1.91 6006.2646484375
1.92 5992.5869140625
1.93 5987.39794921875
1.94 5996.31591796875
1.95 6017.50048828125
1.96 6047.27294921875
1.97 6080.638671875
1.98 6112.07421875
1.99 6136.392578125
2. 6149.47607421875
2.01 6149.36572265625
2.02 6136.060546875
2.03 6111.38037109375
2.04 6078.861328125
2.05 6043.27880859375
2.06 6009.8837890625
2.07 5983.5869140625
2.08 5968.2353515625
2.09 5966.52294921875
2.1 5982.3134765625
2.11 6016.166015625
2.12 6067.8984375
2.13 6136.55029296875
2.14 6220.48046875
2.15 6317.3896484375
2.16 6424.447265625
2.17 6538.9638671875
2.18 6658.05078125
2.19 6777.7978515625
2.2 6894.0830078125
2.21 7002.79443359375
2.22 7100.03125
2.23 7182.32080078125
2.24 7246.81982421875
2.25 7291.44580078125
2.26 7315.025390625
2.27 7317.29345703125
2.28 7298.943359375
2.29 7261.49658203125
2.3 7207.25341796875
2.31 7139.09521484375
2.32 7060.3505859375
2.33 6973.93310546875
2.34 6882.91650390625
2.35 6791.1337890625
2.36 6702.404296875
2.37 6620.4609375
2.38 6548.6962890625
2.39 6490.17431640625
2.4 6447.3486328125
